t,signal
0,0
0.010005003,4.204874601
0.020010005,7.656177097
0.030015008,9.799098444
0.04002001,10.41525268
0.050025013,9.658336224
0.060030015,7.98033727
0.070035018,5.976075916
0.08004002,4.198944678
0.090045023,3.007447518
0.100050025,2.488790527
0.110055028,2.477611848
0.12006003,2.655161008
0.130065033,2.688293362
0.140070035,2.357153044
0.150075038,1.628228053
0.16008004,0.651860135
0.170085043,-0.308419948
0.180090045,-0.98355721
0.190095048,-1.201394127
0.20010005,-0.946518877
0.210105053,-0.358392704
0.220110055,0.327346744
0.230115058,0.868779377
0.24012006,1.10323229
0.250125063,0.996836816
0.260130065,0.642101178
0.270135068,0.208222876
0.28014007,-0.133386881
0.290145073,-0.277744268
0.300150075,-0.222572868
0.310155078,-0.059876692
0.32016008,0.071225997
0.330165083,0.049301827
0.340170085,-0.174241065
0.350175088,-0.552028375
0.36018009,-0.958384764
0.370185093,-1.239837848
0.380190095,-1.277434846
0.390195098,-1.035496349
0.4002001,-0.577322317
0.410205103,-0.041920432
0.420210105,0.408511017
0.430215108,0.649125288
0.44022011,0.636962566
0.450225113,0.422283081
0.460230115,0.12309633
0.470235118,-0.125908184
0.48024012,-0.2287576
0.490245123,-0.165307933
0.500250125,0.004714426
0.510255128,0.17178377
0.52026013,0.227744417
0.530265133,0.116400886
0.540270135,-0.137910986
0.550275138,-0.43616962
0.56028014,-0.643142379
0.570285143,-0.643131392
0.580290145,-0.390215697
0.590295148,0.06796497
0.60030015,0.603417312
0.610305153,1.053630439
0.620310155,1.282304954
0.630315158,1.230846449
0.64032016,0.939796311
0.650325163,0.531200541
0.660330165,0.158627672
0.670335168,-0.055166192
0.68034017,-0.067519453
0.690345173,0.068455405
0.700350175,0.228943095
0.710355178,0.275679302
0.72036018,0.120509692
0.730365183,-0.228976256
0.740370185,-0.663263143
0.750375188,-1.009247598
0.76038019,-1.099883372
0.770385193,-0.848126238
0.780390195,-0.294675282
0.790395198,0.392260382
0.8004002,0.968861306
0.810405203,1.202284215
0.820410205,0.959813647
0.830415208,0.265187922
0.84042021,-0.702699463
0.850425213,-1.672421384
0.860430215,-2.383691298
0.870435218,-2.694153603
0.88044022,-2.647223395
0.890445223,-2.470740619
0.900450225,-2.500459544
0.910455228,-3.050636244
0.92046023,-4.275822914
0.930465233,-6.074909336
0.940470235,-8.07706386
0.950475238,-9.72269718
0.96048024,-10.41974661
0.970485243,-9.727939627
0.980490245,-7.511282756
0.990495248,-4.006769639
1.00050025,0.216861518
1.010505253,4.40105254
1.020510255,7.797727588
1.030515258,9.866359822
1.04052026,10.4072617
1.050525263,9.591642051
1.060530265,7.88280455
1.070535268,5.877853088
1.08054027,4.123589696
1.090545273,2.965995731
1.100550275,2.478423233
1.110555278,2.484957537
1.12056028,2.662712417
1.130565283,2.681481489
1.140570285,2.329580119
1.150575288,1.583391517
1.16058029,0.601060049
1.170585293,-0.350917715
1.180590295,-1.006123124
1.190595298,-1.199288403
1.2006003,-0.923322425
1.210605303,-0.324279827
1.220610305,0.359639898
1.230615308,0.88863676
1.24062031,1.105701431
1.250625313,0.983788522
1.260630315,0.620741077
1.270635318,0.187714936
1.28064032,-0.145748269
1.290645323,-0.279289674
1.300650325,-0.215923521
1.310655328,-0.051380928
1.32066033,0.074533883
1.330665333,0.042912262
1.340670335,-0.190257312
1.350675338,-0.572933756
1.36068034,-0.976653381
1.370685343,-1.248201322
1.380690345,-1.271844175
1.390695348,-1.016805072
1.40070035,-0.551029196
1.410705353,-0.016096559
1.420710355,0.426263792
1.430715358,0.654466779
1.44072036,0.630261625
1.450725363,0.408181681
1.460730365,0.108415718
1.470735368,-0.135033355
1.48074037,-0.229337424
1.490745373,-0.15855469
1.500750375,0.014135594
1.510755378,0.177970384
1.52076038,0.226295218
1.530765383,0.106519679
1.540770385,-0.152843549
1.550775388,-0.449823723
1.56078039,-0.64878945
1.570785393,-0.636484696
1.580790395,-0.371389549
1.590795398,0.094210303
1.6008004,0.629293492
1.610805403,1.071193646
1.620810405,1.286452972
1.630815408,1.221238173
1.64082041,0.920907075
1.650825413,0.510469552
1.660830415,0.143428866
1.670835418,-0.060505844
1.68084042,-0.063426469
1.690845423,0.077098654
1.700850425,0.235017973
1.710855428,0.273088508
1.72086043,0.107124211
1.730865433,-0.249955786
1.740870435,-0.68420323
1.750875438,-1.021002615
1.76088044,-1.09565051
1.770885443,-0.826690837
1.780890445,-0.261653363
1.790895448,0.42585003
1.80090045,0.990324022
1.810905453,1.201950359
1.820910455,0.934905641
1.830915458,0.221252291
1.84092046,-0.753541169
1.850925463,-1.715942942
1.860930465,-2.409186897
1.870935468,-2.699079821
1.88094047,-2.638937905
1.890945473,-2.464389084
1.900950475,-2.513464118
1.910955478,-3.095568017
1.92096048,-4.354194738
1.930965483,-6.17429187
1.940970485,-8.17290673
1.950975488,-9.784654216
1.96098049,-10.42070273
1.970985493,-9.652887961
1.980990495,-7.36309689
1.990995498,-3.806825726
2.0010005,0.433622162
2.011005503,4.595216692
2.021010505,7.935884123
2.031015508,9.929721618
2.04102051,10.3958164
2.051025513,9.522686287
2.061030515,7.784542996
2.071035518,5.78030103
2.08104052,4.049785834
2.091045523,2.926273103
2.101050525,2.469322828
2.111055528,2.492732375
2.12106053,2.669840063
2.131065533,2.673701621
2.141070535,2.300981736
2.151075538,1.537941089
2.16108054,0.550336094
2.171085543,-0.39265122
2.181090545,-1.027499233
2.191095548,-1.195976378
2.20110055,-0.89929827
2.211105553,-0.289954619
2.221110555,0.391527433
2.231115558,0.907685759
2.24112056,1.107295804
2.251125563,0.970121474
2.261130565,0.599206592
2.271135568,0.167471275
2.28114057,-0.15758704
2.291145573,-0.280322421
2.301150575,-0.209011596
2.311155578,-0.042986406
2.32116058,0.077431387
2.331165583,0.035997657
2.341170585,-0.206664157
2.351175588,-0.593897199
2.36118059,-0.99458334
2.371185593,-1.255926378
2.381190595,-1.265535134
2.391195598,-0.997570811
2.4012006,-0.524558797
2.411205603,0.009487033
2.421210605,0.443462855
2.431215608,0.659156885
2.44122061,0.623051622
2.451225613,0.393883105
2.461230615,0.093885029
2.471235618,-0.143768691
2.48124062,-0.229487087
2.491245623,-0.151536191
2.501250625,0.023533718
2.511255628,0.183856308
2.52126063,0.224407885
2.531265633,0.096273281
2.541270635,-0.167877632
2.551275638,-0.463227945
2.56128064,-0.65389263
2.571285643,-0.629185429
2.581290645,-0.352044827
2.591295648,0.12063633
2.60130065,0.654930336
2.611305653,1.088172791
2.621310655,1.289878032
2.631315658,1.211024616
2.64132066,0.90173632
2.651325663,0.489854499
2.661330665,0.128655841
2.671335668,-0.065321914
2.68134067,-0.058959738
2.691345673,0.085787925
2.701350675,0.24078161
2.711355678,0.269966261
2.72136068,0.093238631
2.731365683,-0.271141743
2.741370685,-0.704897728
2.751375688,-1.032084146
2.76138069,-1.09053039
2.771385693,-0.804487521
2.781390695,-0.228309346
2.791395698,0.45912888
2.8014007,1.010882001
2.811405703,1.200385297
2.821410705,0.908847434
2.831415708,0.176644333
2.84142071,-0.804348455
2.851425713,-1.758764943
2.861430715,-2.433633093
2.871435718,-2.703090862
2.88144072,-2.630343599
2.891445723,-2.458602355
2.901450725,-2.527837036
2.911455728,-3.142247261
2.92146073,-4.434028693
2.931465733,-6.274160775
2.941470735,-8.267788054
2.951475738,-9.844137613
2.96148074,-10.41808226
2.971485743,-9.573950489
2.981490745,-7.211674005
2.991495748,-3.605132187
3.00150075,0.650181129
3.011505753,4.78728166
3.021510755,8.070598838
3.031515758,9.989184124
3.04152076,10.38096141
3.051525763,9.451541422
3.061530765,7.685629554
3.071535768,5.683478575
3.08154077,3.977559148
3.091545773,2.888270213
3.101550775,2.461453517
3.111555778,2.500891019
3.12156078,2.676507191
3.131565783,2.664938658
3.141570785,2.271368315
3.151575788,1.491906798
3.16158079,0.499725153
3.171585793,-0.433591146
3.181590795,-1.04767444
3.191595798,-1.191468409
3.2016008,-0.874473344
3.211605803,-0.255449946
3.221610805,0.422982595
3.231615808,0.925914614
3.24162081,1.108021251
3.251625813,0.955854915
3.261630815,0.577521454
3.271635818,0.14751026
3.28164082,-0.168897076
3.291645823,-0.280850031
3.301650825,-0.201853927
3.311655828,-0.034711275
3.32166083,0.079907289
3.331665833,0.028558817
3.341670835,-0.223448826
3.351675838,-0.614899053
3.36168084,-1.012156071
3.371685843,-1.263003094
3.381690845,-1.258510572
3.391695848,-0.977808261
3.40170085,-0.497932099
3.411705853,0.034810995
3.421710855,0.460097598
3.431715858,0.663197245
3.44172086,0.615345062
3.451725863,0.379405124
3.461730865,0.07951986
3.471735868,-0.152107004
3.48174087,-0.229210318
3.491745873,-0.144264909
3.501750875,0.032893465
3.511755878,0.189430439
3.52176088,0.222080846
3.531765883,0.085670911
3.541770885,-0.182996622
3.551775888,-0.476364986
3.56178089,-0.658441248
3.571785893,-0.62123445
3.581790895,-0.332194314
3.591795898,0.147222738
3.6018009,0.680307523
3.611805903,1.104555229
3.621810905,1.292579934
3.631815908,1.200217905
3.64182091,0.8823035
3.651825913,0.469374245
3.661830915,0.11431924
3.671835918,-0.069616174
3.68184092,-0.054132414
3.691845923,0.094504628
3.701850925,0.246218466
3.711855928,0.266307588
3.72186093,0.07886183
3.731865933,-0.292513992
3.741870935,-0.725322984
3.751875938,-1.042475018
3.76188094,-1.084520557
3.771885943,-0.781531484
3.781890945,-0.194672079
3.791895948,0.492064262
3.80190095,1.030510907
3.811905953,1.197582816
3.821910955,0.881654295
3.831915958,0.131395921
3.84192096,-0.855084627
3.851925963,-1.800860411
3.861930965,-2.457024386
3.871935968,-2.706206795
3.88194097,-2.621480237
3.891945973,-2.453425371
3.901950975,-2.543610001
3.911955978,-3.190676691
3.92196098,-4.515291542
3.931965983,-6.374452086
3.941970985,-8.361629834
3.951975988,-9.901078694
3.96198099,-10.41184845
3.971985993,-9.49113671
3.981990995,-7.057070762
3.991995998,-3.401779538
4.002001001,0.866437752
4.012006003,4.977163473
4.022011006,8.201826139
4.032016008,10.04475006
4.042021011,10.36274325
4.052026013,9.378280751
4.062031016,7.586140757
4.072036018,5.587443175
4.082041021,3.906933879
4.092046023,2.851976016
4.102051026,2.454778592
4.112056028,2.509388146
4.122061031,2.682677882
4.132066033,2.655178767
4.142071036,2.24075147
4.152076038,1.445319355
4.162081041,0.449264062
4.172086043,-0.473708882
4.182091046,-1.06663871
4.192096048,-1.185775859
4.202101051,-0.848875158
4.212106053,-0.220798651
4.222111056,0.453979211
4.232116058,0.943312443
4.242121061,1.107884434
4.252126063,0.941008547
4.262131066,0.555709351
4.272136068,0.127849774
4.282141071,-0.179672956
4.292146073,-0.280880637
4.302151076,-0.194467622
4.312156078,-0.02657352
4.322161081,0.081950886
4.332166083,0.020597193
4.342171086,-0.24059805
4.352176088,-0.635919521
4.362181091,-1.029353272
4.372186093,-1.269422125
4.382191096,-1.250774001
4.392196098,-0.957532594
4.402201101,-0.471170194
4.412206103,0.05985627
4.422211106,0.476157979
4.432216108,0.666590118
4.442221111,0.607154871
4.452226113,0.364765585
4.462231116,0.065335514
4.472236118,-0.160041631
4.482241121,-0.228511372
4.492246123,-0.136753619
4.502251126,0.042199551
4.512256128,0.194682051
4.522261131,0.219313078
4.532266133,0.074722269
4.542271136,-0.198183694
4.552276138,-0.489217713
4.562281141,-0.662425127
4.572286143,-0.612633247
4.582291146,-0.31185131
4.592296148,0.173949016
4.602301151,0.705404941
4.612306153,1.120328859
4.622311156,1.294559138
4.632316158,1.18883069
4.642321161,0.862628239
4.652326163,0.449047409
4.662331166,0.100429148
4.672336168,-0.073391036
4.682341171,-0.048958101
4.692346173,0.103230114
4.702351176,0.251313374
4.712356178,0.262108173
4.722361181,0.064003356
4.732366183,-0.314052003
4.742371186,-0.74545543
4.752376188,-1.052158632
4.762381191,-1.077619424
4.772386193,-0.757838752
4.782391196,-0.160770871
4.792396198,0.524623635
4.802401201,1.049187114
4.812406203,1.193537764
4.822411206,0.85334251
4.832416208,0.085539495
4.842421211,-0.905713132
4.852426213,-1.842203213
4.862431216,-2.479356539
4.872436218,-2.708448896
4.882441221,-2.612388238
4.892446223,-2.448902854
4.902451226,-2.56081359
4.912456228,-3.240857294
4.922461231,-4.597948283
4.932466233,-6.475100658
4.942471236,-8.454353954
4.952476238,-9.955409882
4.962481241,-10.40196662
4.972486243,-9.404458583
4.982491246,-6.899345936
4.992496248,-3.196859423
5.002501251,1.082291571
5.012506253,5.164779639
5.022511256,8.329522732
5.032516258,10.09642457
5.042521261,10.34121025
5.052526263,9.302978311
5.062531266,7.486152674
5.072536268,5.492250869
5.082541271,3.837932446
5.092546273,2.817377873
5.102551276,2.44926047
5.112556278,2.518178495
5.122561281,2.68831709
5.132566283,2.644409394
5.142571286,2.209143997
5.152576288,1.398210123
5.162581291,0.398989571
5.172586293,-0.512976553
5.182591296,-1.084383084
5.192596298,-1.178911082
5.202601301,-0.822531778
5.212606303,-0.186033513
5.222611306,0.484491715
5.232616308,0.959869247
5.242621311,1.106892825
5.252626313,0.92560251
5.262631316,0.533793901
5.272636318,0.108507192
5.282641321,-0.189909963
5.292646323,-0.280422971
5.302651326,-0.186870042
5.312656328,-0.018590939
5.322661331,0.083552008
5.332666333,0.012114882
5.342671336,-0.25809807
5.352676338,-0.656938681
5.362681341,-1.046156934
5.372686343,-1.275174718
5.382691346,-1.242329584
5.392696348,-0.936759445
5.402701351,-0.444294267
5.412706353,0.084604105
5.422711356,0.491634534
5.432716358,0.669338373
5.442721361,0.598494388
5.452726363,0.34998238
5.462731366,0.051346983
5.472736368,-0.167566438
5.482741371,-0.227395025
5.492746373,-0.129015385
5.502751376,0.051436753
5.512756378,0.199600808
5.522761381,0.216104112
5.532766383,0.063437537
5.542771386,-0.21342183
5.552776388,-0.501769177
5.562781391,-0.665834592
5.572786393,-0.603383936
5.582791396,-0.291029618
5.592796398,0.200794484
5.602801401,0.730202715
5.612806403,1.135482135
5.622811406,1.295816769
5.632816408,1.176876125
5.642821411,0.842730312
5.652826413,0.428892339
5.662831416,0.086995076
5.672836418,-0.076649549
5.682841421,-0.04345083
5.692846423,0.111945703
5.702851426,0.256051563
5.712856428,0.257364373
5.722861431,0.048673427
5.732866433,-0.335734873
5.742871436,-0.765271609
5.752876438,-1.06111898
5.762881441,-1.06982628
5.772886443,-0.733426178
5.782891446,-0.126635465
5.792896448,0.556774615
5.802901451,1.066887737
5.812906453,1.188246058
5.822911456,0.823929363
5.832916458,0.039108026
5.842921461,-0.956197593
5.852926463,-1.882768086
5.862931466,-2.500626583
5.872936468,-2.709839634
5.882941471,-2.603108642
5.892946473,-2.445079258
5.902951476,-2.579477213
5.912956478,-3.292788318
5.922961481,-4.681962161
5.932966483,-6.576040214
5.942971486,-8.545882246
5.952976488,-10.00706476
5.962981491,-10.38840421
5.972986493,-9.313930524
5.982991496,-6.738560389
5.992996498,-2.990464555
6.003001501,1.297642405
6.013006503,5.350049201
6.023011506,8.45364764
6.033016508,10.1442152
6.043021511,10.31641253
6.053026513,9.225708823
6.063031516,7.385740848
6.073036518,5.397956242
6.083041521,3.770575445
6.093046523,2.784461575
6.103051526,2.444860744
6.113056528,2.527216916
6.123061531,2.693390668
6.133066533,2.632619272
6.143071536,2.176559848
6.153076538,1.350611077
6.163081541,0.348938313
6.173086543,-0.551367047
6.183091546,-1.100899684
6.193096548,-1.170887412
6.203101551,-0.795471792
6.213106553,-0.151187224
6.223111556,0.514495165
6.233116558,0.975575917
6.243121561,1.105054694
6.253126563,0.90965736
6.263131566,0.511798627
6.273136568,0.089499369
6.283141571,-0.199604085
6.293146573,-0.279486349
6.303151576,-0.179078775
6.313156578,-0.010781126
6.323161581,0.084701026
6.333166583,0.003114621
6.343171586,-0.275934655
6.353176588,-0.677936507
6.363181591,-1.062549353
6.373186593,-1.280252717
6.383191596,-1.233182136
6.393196598,-0.915504897
6.403201601,-0.417325574
6.413206603,0.109036072
6.423211606,0.506518383
6.433216608,0.67144549
6.443221611,0.58937734
6.453226613,0.335073438
6.463231616,0.037568931
6.473236618,-0.174675827
6.483241621,-0.225866567
6.493246623,-0.121063547
6.503251626,0.060589932
6.513256628,0.204176779
6.523261631,0.212454029
6.533266633,0.051827359
6.543271636,-0.228693835
6.553276638,-0.514002635
6.563281641,-0.668660484
6.573286643,-0.593489261
6.583291646,-0.269743535
6.593296648,0.227738304
6.603301651,0.754681221
6.613306653,1.15000408
6.623311656,1.296354611
6.633316658,1.164367859
6.643321661,0.822629622
6.653326663,0.408927101
6.663331666,0.074025958
6.673336668,-0.079395394
6.683341671,-0.037625049
6.693346673,0.120632701
6.703351676,0.260418669
6.713356678,0.252073217
6.723361681,0.032882919
6.733366683,-0.357541351
6.743371686,-0.7847482
6.753376688,-1.069340668
6.763381691,-1.061141293
6.773386693,-0.708311426
6.783391696,-0.092296016
6.793396698,0.588485011
6.803401701,1.083590652
6.813406703,1.181704688
6.823411706,0.793433124
6.833416708,-0.007865014
6.843421711,-1.006501852
6.853426713,-1.922530669
6.863431716,-2.520832828
6.873436718,-2.710402649
6.883441721,-2.593683074
6.893446723,-2.441998725
6.903451726,-2.599629073
6.913456728,-3.346467251
6.923461731,-4.767294687
6.933466733,-6.677203384
6.943471736,-8.636136546
6.953476738,-10.05597812
6.963481741,-10.37113078
6.973486743,-9.219569411
6.983491746,-6.574777023
6.993496748,-2.782688654
7.003501751,1.512390413
7.013506753,5.532892788
7.023511756,8.574162232
7.033516758,10.18813186
7.043521761,10.28840193
7.053526763,9.146547627
7.063531766,7.284980241
7.073536768,5.304612396
7.083541771,3.704881644
7.093546773,2.753211368
7.103551776,2.441540222
7.113556778,2.536458411
7.123561781,2.697865402
7.133566783,2.619798421
7.143571786,2.143014122
7.153576788,1.302554772
7.163581791,0.299146762
7.173586793,-0.588854037
7.183591796,-1.116181712
7.193596798,-1.161719147
7.203601801,-0.767724284
7.213606803,-0.116292352
7.223611806,0.543965266
7.233616808,0.990424231
7.243621811,1.102379093
7.253626813,0.893194039
7.263631816,0.489746933
7.273636818,0.070842621
7.283641821,-0.208752014
7.293646823,-0.278080663
7.303651826,-0.171111622
7.313656828,-0.003161445
7.323661831,0.085388866
7.333666833,-0.006400208
7.343671836,-0.294093117
7.353676838,-0.698892889
7.363681841,-1.078513156
7.373686843,-1.284648575
7.383691846,-1.223337122
7.393696848,-0.893785462
7.403701851,-0.390285422
7.413706853,0.133134085
7.423711856,0.520801236
7.433716858,0.672915548
7.443721861,0.579817835
7.453726863,0.320056698
7.463731866,0.024015685
7.473736868,-0.18136474
7.483741871,-0.223931794
7.493746873,-0.112911699
7.503751876,0.06964405
7.513756878,0.208400447
7.523761881,0.208363468
7.533766883,0.039902841
7.543771886,-0.243982357
7.553776888,-0.525901564
7.563781891,-0.67089417
7.573786893,-0.582952597
7.583791896,-0.248007837
7.593796898,0.254759506
7.603801901,0.77882111
7.613806903,1.163884295
7.623811906,1.296175107
7.633816908,1.151320017
7.643821911,0.802346177
7.653826913,0.389169456
7.663831916,0.061530137
7.673836918,-0.081632878
7.683841921,-0.031495603
7.693846923,0.129272426
7.703851926,0.26440076
7.713856928,0.246232415
7.723861931,0.016643358
7.733866933,-0.379449851
7.743871936,-0.803862042
7.753876938,-1.076808938
7.763881941,-1.051565519
7.773886943,-0.682512959
7.783891946,-0.057783058
7.793896948,0.619722853
7.803901951,1.099274521
7.813906953,1.173911727
7.823911956,0.761873034
7.833916958,-0.055345682
7.843921961,-1.056590001
7.853926963,-1.961467526
7.863931966,-2.539974869
7.873936968,-2.710162738
7.883941971,-2.584153699
7.893946973,-2.439705034
7.903951976,-2.621296132
7.913956978,-3.401889809
